# mass(eV) Mixing (%)
29591.00397673 2.38989257
33981.32857804 2.32566300
38079.61071207 2.27407224
41983.96593637 2.22362594
46288.64010912 2.17429870
51872.18226554 2.11022698
59563.76369291 1.98288395
66221.55757486 1.83759695
72995.56092900 1.69718713
77939.98721514 1.59720064
83200.19498963 1.42773250
87381.84492458 1.28342309
90289.86420795 1.17327480
94838.25977621 1.00841128
96415.34194969 0.91670998
99630.83153844 0.81486131
102945.07661880 0.74911626
106376.87462460 0.66963261
109920.05680682 0.60533423
113581.25467639 0.54720980
114940.55871384 0.50431595
119317.71089058 0.44716843
129447.69690000 0.41340173
154764.70837217 0.45221232
165132.73620243 0.48914907
176400.24851273 0.53669769
201967.57587006 0.52841237
221000.24350452 0.56234133
228458.00581573 0.61906715
239808.56694465 0.69644371
251723.06207747 0.78349148
264392.84070198 0.68482424
264443.67548878 0.63311162
270733.26814123 0.56234133
276982.13362293 0.50431595
277045.45070332 0.45936951
283461.60545428 0.39934785
291923.35594901 0.37092270
314851.47737959 0.41340173
327088.53819053 0.38218483
354507.43232286 0.52910282
358452.98242193 0.48188812
360268.99711246 0.55962408
372411.93926741 0.43237178
384594.29009173 0.49466650
390716.04480786 0.59858243
390801.90077255 0.54720980
403558.11483877 0.64385367
406076.40044755 0.69918901
434401.62569977 0.76760030

