# mass(eV) Mixing (%)
100.07065706 40.16498145
103.39621998 37.41073482
112.19502375 32.09388646
119.86216964 29.25608548
125.78259748 26.12858100
131.24749834 23.52998345
138.73894474 21.43171108
146.98098862 19.52272966
150.55498888 17.91086823
155.55683050 16.74515073
168.79593929 14.31170514
176.21621736 13.02761348
186.17780036 11.87144718
195.52079461 10.99554350
212.15241065 9.55709524
230.21457072 8.07712809
245.72486814 7.55143333
266.64530873 6.38205361
289.99983797 5.71158648
303.83800483 5.19581837
335.11669805 4.35850460
375.67751371 3.64248105
388.15853104 3.40541248
435.11535850 2.91052975
466.57581980 2.58322457
495.80689429 2.36954824
564.93805487 1.96552168
643.67882093 1.66115017
687.02666803 1.57055294
782.69808982 1.38825322
951.66379006 1.19989231
1015.75254849 1.13445156
1138.56896775 0.99158694
1276.38723268 0.82559459
1362.36908094 0.77475255
1502.50852297 0.66963261
1712.00572676 0.55545500
1812.66919219 0.50431595
1919.34116153 0.45221232
2049.18794930 0.38004745
2151.94391484 0.35731058
2297.49513586 0.30197913
2489.43506244 0.27066521
2493.26968358 0.24815888
2576.10280777 0.23200762
2795.31101595 0.19940691
3398.28476758 0.18229304
3746.50981362 0.18229304

