# mass(eV) Mixing (%)
103.70431490 11.09880156
112.52212584 9.77391235
120.11300014 8.83541745
128.20892112 8.16823517
141.40095375 6.98120758
150.93795485 6.34636165
161.11376843 5.83432133
177.69397920 4.95857666
189.67881827 4.50766152
202.47199293 4.09775097
216.14286272 3.62211029
230.72094486 3.29272859
246.28903191 2.95991294
262.91480925 2.63105954
280.65134999 2.37842417
299.58030458 2.16213882
314.60267647 2.03278585
346.96412989 1.75697350
376.44180665 1.58826821
421.97349675 1.36764591
465.33699533 1.22711367
496.70188957 1.13445156
538.90851598 1.01978579
560.21169632 0.93966483
627.22453063 0.85591854
688.17863175 0.79232898
758.78021783 0.75756602
892.72133705 0.76611110
968.24676226 0.79232898

