# mass (kev) Ue^2/1e-3
5.15848376 2.91621503
5.31360688 2.84982305
5.46873000 2.78134370
5.62385311 2.70464533
5.77897623 2.63251308
5.93409935 2.55928496
6.05044168 2.50103060
6.08922246 2.43110680
6.28312636 2.36730455
6.39946870 2.29284349
6.59337259 2.21980114
6.82605727 2.13377384
6.90361883 2.05666333
7.09752272 1.99275323
7.30693893 1.91046856
7.44654974 1.83814198
7.67923441 1.75962341
7.93777294 1.69754498
7.98948065 1.64214684
8.14460376 1.58797468
8.45485000 1.51676817
8.76509623 1.43629894
9.04431784 1.34987821
9.44763795 1.27539159
9.78890880 1.20820577
10.39388896 1.14267632
11.47975078 1.09510225
12.72073571 1.08789653
13.80659753 1.03927878
14.58221312 0.96658775
15.20270559 0.90727818
15.90075961 0.83610294
16.83149831 0.76823407
17.60711390 0.71131140
18.38272948 0.65658046
19.39102974 0.59620629
20.63201468 0.56023399
21.87299962 0.57037954
23.11398455 0.58052510
24.35496949 0.56236068
25.59595442 0.52227887
26.83693936 0.48174044
28.07792429 0.46722893
29.31890923 0.47052529
30.55989417 0.47245182
31.80087910 0.48305399
33.04186404 0.51009420
34.28284897 0.53485135
35.52383391 0.54591012
36.76481885 0.55514245
38.00580378 0.56848429
39.24678872 0.56082196
40.33265054 0.51418286
41.41851235 0.45049690
42.65949729 0.41361137
43.90048223 0.41508129
44.98634404 0.44515307
45.76195963 0.50701050
46.38245210 0.57372595
46.92538301 0.64594059
47.46831392 0.71627659
48.08880638 0.77994796
48.94198353 0.83928940
50.10540690 0.88223956
51.34639184 0.90425703
52.58737678 0.92216500
53.82836171 0.93368038
55.06934665 0.91414613
56.31033158 0.86630191
57.47375496 0.80866688
58.32693210 0.74520133
58.94742457 0.67428076
59.41279392 0.60417392
59.92987098 0.53707186
60.80890198 0.46834648
61.89476379 0.43844983
63.13574873 0.43946314
64.22161055 0.47166578
65.01273845 0.52810599
65.54015704 0.59536187
65.92796484 0.65201308
66.31577263 0.70988193
66.71909273 0.76662137
67.16894977 0.83567135
67.94456536 0.90057286
69.03042718 0.94358199
70.27141211 0.97655817
71.51239705 0.96935245
72.75338198 0.90735324
73.99436692 0.88781899
75.08022874 0.93219796
76.16609056 0.99438481
77.40707549 1.02370809
78.64806043 1.01695898
79.88904536 1.02756115
81.13003030 1.05688442
82.21589212 1.03322814
82.99150770 0.96297238
83.53443861 0.88584867
84.23249264 0.81847854
85.31835446 0.78097168
86.24909316 0.82899105
86.94714719 0.89540834
87.41251654 0.96095453
87.81583664 1.02162518
88.25018137 1.10275457
88.59145223 1.17437892
88.96374771 1.24838015
89.33604319 1.32619084
89.66180173 1.39363919
89.98756028 1.45503417
90.35985576 1.51789406
91.21303290 1.58873779
92.45401784 1.60299285
93.53987966 1.63991382
94.39305680 1.69867254
95.40135706 1.74797667
96.64234200 1.75949206
97.72820382 1.72974762
98.38747706 1.66374419
98.89162719 1.59772825
99.13982418 1.53613604
99.51211966 1.46201221
99.79134127 1.37779887
100.07056288 1.30534787
100.50490761 1.23597781
100.90822771 1.16722566
101.91652797 1.13390180
103.15751291 1.17098748
103.90410959 1.20837936
104.08825161 1.42767871
104.47605940 1.96103327
104.63118252 2.14369074
104.73459793 2.27033292
104.93150685 2.51491383

